ECG
8-7-39-5-59-4-89-1-1082-1174-1257-13210-12-112-11-514-8-915-5-1215-2-16133-19118-21813-22418-21-223-20-928-16-1732-11-2634-3-36358-473422-612944-782078-1040148-165-55425-711-3045-3687-2667-2319-2620-2427-2161-2146-1926-1713-1738-1606-1383-1364-1315-1164-1117-1054-948-983-1014-940-950-988-927-921-962-912-894-937-893-847-871-824-740-730-703-645-641-623-570-569-569-531-532-540-506-503-517-484-463-465-438-428-447-428-410-424-411-391-403-394-369-380-380-356-361-361-335-330-329-307-307-316-295-283-286-271-266-275-260-259-262-264-266-265-260-256-254-244-243-271-276-183-3141-23-129-180-181-179-187-192-189-186-189-191-184-172-157-148-150-158-167-174-179-182-183-184-186-183-177-172-166-159-151-145-140-135-131-126-122-117-112-108-107-110-116-126-137-142-139-134-133-135-137-138-135-134-136-139-141-142-140-137-140-143-140-133-127-121-117-115-113-112-115-119-118-107-96-94-96-93-92-101-106-100-97-98-97-98-99-94-108-143-123213916276-11-41-42-48-55-62-81-98-97-98-113-113-86-63-60-61-59-63-69-74-81-86-87-85-79-72-68-65-61-55-48-44-46-49-46-41-39-37-34-33-35-44-53-54-45-31-22-22-30-34-33-36-44-49-48-44-42-43-47-52-53-50-46-43-40-37-38-41-40-37-36-35-31-23-19-21-20-16-22-34-37-32-29-26-27-31-28-31-63-702517022215563151-1-3-12-18-20-25-30-29-28-23-51-21-27-36-722211-11-10-3-8-13-104254556626461575040384138343539445153504947403333353534323229201261-3-7-7-20-4-3212141654116-5-8-6-5-6-9-62-5-40-70-241102181887923231300-7-19-17-14-20-17-8-6-6-4-6-13-19-25-29-35-50-59-53-45-45-45-36-29-26-21-16-15-19-24-24-21-19-16-14-11-11-16-21-18-10-9-8-5-4-7-11-15-19-23-22-17-10-11-19-22-21-18-14-14-17-16-11-15-18-14-15-20-15-7-8-14-14-14-19-22-21-17-16-18-18-18-17-20-46-6521462291747528211231-8-17-17-14-11-6277850-2-2-4-10-17-22-20-11-5832526273848581807362565041291795-3-14-17-18-22-25-28-35-41-45-56-70-76-80-88-92-90-88-88-82-74-68-62-56-51-49-47-41-32-21-13-10-44101291123384750546267564711728240436724818919420019518917416015515014514914914414614713812712512011110699929295919310610383768067545859433430135131615272910-4-7-19-32-34-36-44-43-34-32-36-43-52-57-60-65-64-59-62-67-60-52-55-53-39-31-33-30-19-13-21-30-31-31-43-60-63-62-68-76-76-73-73-90-132-142-528513358-39-79-84-85-85-84-88-93-88-82-82-83-76-63-56-58-64-70-80-91-99-104-107-109-108-101-90-79-67-54-42-35-31-23-9612113-6-7-5-7-11-12-2184054606670707175767884878688878178797974716963544223-2-22-34-50-66-71-71-75-77-71-67-70-76-85-90-93-121-171-176-795610016-97-142-136-133-135-131-131-137-137-133-131-127-119-113-109-108-107-106-103-104-105-103-104-110-116-115-108-104-102-92-81-75-68-56-51-54-51-43-41-41-37-32-26-20-15-806814222526292928364746434751505670767168727568585858534744423819-14011223623914066555547485042292014131619202125293024156-3-17-28-32-32-29-23-14-9-415691316161153-1-9-16-19-17-11-7-11-14-8-4-6-10-12-12-520-120-301-221315108103-9-13-11-12-16-17-16-14-20-51-76-9140223162571616101-3-14-24-24-23-29-30-20-749105-5-15-23-28-35-43-44-37-26-19-15-10-5-4-6-7-5-2-2-3-6-10-12-11-12-16-18-14-9-9-11-13-14-13-13-13-13-12-11-11-13-15-19-27-34-28-18-16-16-13-12-18-18-70-4-9-10-15-25-30-29-28-28-29-31-30-25-45-84-5481209203101244-1-5-4-8-19-26-26-27-25-19-13-6371-10-21-31-35-38-44-49-48-41-31-23-20-18-14-10-8-6-2-1-2-2-1-3-4-7-13-18-15-7-2-2-6-9-8-7-10-11-10-10-7-2-3-14-20-19-19-18-15-13-13-12-15-20-19-12-11-13-10-150-5-5-9-21-25-19-17-19-18-17-13-10-36-76-4194218218125411041-2-3-9-17-21-22-20-14-6-201-3-9-14-20-27-34-41-49-50-44-36-30-24-21-23-30-36-33-26-20-14-8-7-12-16-22-30-33-31-26-20-12-9-9-8-8-9-9-9-11-9-4-2-3-5-10-16-19-22-21-13-8-9-44-5-19-15-3575-1-7-17-31-34-26-21-18-12-12-11-9-38-78-34115233208100301510441-7-9-7-12-16-10-327851-4-8-13-19-27-29-24-16-7-3-1471-10-15-14-10-4-1167-1-8-8-6-31101210-2-3-2253-3-8-9-8-5-10000-31131813754-2-7-7-5-7-9-8-4-5-29-63-2312826023411242383527292716131513112034444953534636312720151067121822232122252425282826221815103061211620-2-6-8-5-4-8-11-10-11-14-18-20-18-17-20-23-25-22-16-13-19-21-18-25-39-41-39-41-42-45-51-56-74-91-30113211177789-16-18-14-14-18-21-26-28-26-25-24-18-12-11-8-7-14-18-18-23-32-38-43-48-46-43-39-28-17-82121517212117141391-5-400-2061112963-1-2141-2-10-3-5-4-6-10-7-1-3-11-12-11-22-34-36-35-37-36-38-43-39-40-73-93-1613021216360-2-14-17-24-26-25-30-37-39-39-40-37-27-15-7-3-5-9-14-21-30-38-45-50-52-50-46-37-30-28-26-22-19-18-15-10-8-8-9-10-12-13-11-9-7-4-2-4-8-10-12-14-12-8-8-7-22-1-4-6-9-10-11-11-9-8-11-12-530-5-3-3-12-19-18-18-21-21-21-21-17-29-69-68502102501566234322624201153-3-6-35173242423731241711400617293845484849535558626464646259565454576266707679807874707277828171646768625548455363604845402391118191918202813-40-5850222282190835047332522138129214817242525262520130-14-20-19-16-13-7-130-4-6-6-9-11-13-15-15-13-10-9-10-10-10-11-13-17-21-23-21-19-18-17-18-21-23-23-28-32-33-35-33-21-13-19-27-25-26-37-46-50-53-56-59-62-58-53-78-128-10545203213991-29-35-42-46-48-54-63-73-80-84-89-89-85-84-86-88-92-96-100-104-107-106-105-104-101-98-93-84-79-81-83-82-81-72-57-52-54-47-40-44-48-45-42-44-45-46-47-49-53-54-53-52-49-49-46-33-112141518162030415153454034-4-55-181342662471294934302324221718212022282726333937322723188-1-8-19-30-34-34-38-40-39-39-38-35-34-34-31-28-25-22-27-36-39-40-44-43-39-42-43-40-43-49-47-43-47-52-52-50-51-58-65-67-68-66-64-66-65-62-80-105-597218419311521-29-31-27-36-39-37-42-46-46-46-43-35-36-41-37-31-32-31-28-33-42-48-52-57-62-67-66-59-48-36-25-19-12-21-3-5-4-6-7-8-10-8-4-12676111924252528353424182123232524283212-11401662602461587744413530404325173448516073818786807566462712-3-12-14-13-11-15711161719222120191372-3-5-2-2-3-1011-1-5-11121232221186-7-11-10-12-12-10-11-9-15-51-6719170239174732619141219211616181291936567689939179573515-3-12-12-13-10-32692-10-9-11376331-215712172021211780-4-10-15-16-14-15-16-15-16-18-18-18-14014123-1-9-24-32-33-36-39-39-40-41-35-46-87-941317623715037-6-6-10-15-19-27-33-33-37-42-41-34-27-21-18-17-17-21-27-35-47-58-63-61-58-52-45-39-34-30-30-29-25-23-24-25-26-30-32-30-33-39-34-18-7-6-504420-2-7-9-8-9-12-13-14-15-12-7-6-7-3-1-5-8-7-10-15-17-19-21-16-42-3-5-3-11-23-24-21-25-29-27-28-29-24-40-77-634817920912523-18-16-17-27-34-39-39-36-36-37-31-25-24-24-24-25-24-22-28-37-41-44-52-54-52-50-47-39-32-25-14-8-9-9-6-8-14-16-14-14-16-19-22-24-19-11-11-17-16-12-13-15-14-17-23-23-21-22-22-20-20-21-20-17-17-16-11-221-1-8-19-25-23-26-28-25-27-30-23-30-63-613015921516162-2-12-6-11-18-18-19-19-13-9-10-7-3-3-235-1-6-11-16-22-27-29-26-24-23-20-11-2379950-1-3-6-7-5-6-8-5-2036811138-6-14-12-7-5-5-30-1-4-30-1-17171914105-2-11-13-11-13-18-18-18-17-16-36-66-339221121111627-4-3-3-8-12-16-19-20-21-22-18-10-42811850-10-23-35-45-51-53-50-45-40-33-26-24-23-18-15-15-11-5-5-5-1-3-7-10-12-13-8-3-1291314102-5-301440-3-2-4-8-511-3-7-8-11-12-39135-2-3-9-21-27-26-26-23-16-14-12-12-39-75-2612624321511145333226221610773-4-26152330312823155-5-16-26-28-26-23-19-14-16-24-28-27-23-17-10-4-5-9-12-14-17-20-21-19-17-11-7-8-8-6-6-6-6-7-7-7-9-12-11-14-17-14-11-15-11-2-7-19-16-9-13-16-15-13-563-7-7-8-17-20-18-18-18-15-19-19-12-34-81-64732272481414095-3-7-9-17-20-18-21-26-25-19-11-32-2-10-18-24-29-38-45-48-46-44-35-21-10-4381216181718232427333433384448525139272729231715141212117477310-3-7-8-9-15-21-19-10-7-13-13-7-13-25-27-26-30-29-24-23-20-25-57-701014821916966-1-14-12-16-21-22-25-28-28-31-35-33-29-26-25-26-29-30-31-34-39-45-53-59-59-59-59-56-51-44-34-24-17-13-12-12-11-10-13-11-8-11-19-21-17-16-16-14-13-11-9-7-8-11-11-9-11-17-20-17-15-12-5-4-7-6-2-7-13-10-7-7-7-7-7-5-12-39-4627150223192992810171712116-1-3-2-4-2456994-3-8-15-21-24-27-27-22-17-11-5243455665574-3-8-9-7-4-113676530-4-5-5-6-4-2-2-6-7161-6-6-8-17-18-14-16-18-18-24-25-21-43-84-558121221712028-7-6-5-19-31-30-25-26-29-29-26-19-10-412-3-9-13-21-32-36-35-36-33-27-21-16-9-7-9-10-8-6-7-7-6-5-5-6-7-10-12-10-7-7-6-5-4-5-5-6-5-3021-2-4-5-6-6-4010161165-2-14-17-13-18-25-27-30-27-21-42-80-479824324713132881-2-3-10-15-14-22-30-28-24-19-9-201-4-15-20-20-26-33-32-29-25-20-17-13-8-7-8-6-5-6-5-5-9-11-10-10-11-12-13-11-7-7-7-6-7-9-8-8-13-18-16-15-15-14-13-12-13-13-12-13-13-9-6-10-13-13-14-14-6462-1-6-13-17-14-13-16-16-13-14-12-11-43-80-151542662159531222015141298111515193247545553463931173-2281013192118182222151111105-1-8-10-10-11-12-9-8-13-17-16-14-14-15-15-15-16-17-16-17-22-24-24-24-23-21-19-20-21-22-22-22-22-23-20-11-9-16-17-13-20-30-28-24-28-27-22-24-21-16-36-62-259521022213028-13-9-8-14-15-18-24-26-26-25-19-13-11-10-9-12-14-13-16-23-27-33-38-35-29-27-28-24-17-814544640-2-1-3-8-9-51545911756300-1-4-5-2-3-5-5-6-8-8-6-5-6-4-2291030-3-14-23-20-19-20-16-15-17-12-19-55-5739182247188781014-3-7-9-15-19-18-22-23-15-9-51453-3-11-16-24-35-40-39-38-32-25-24-17-9-12-17-10-3-7-8-6-6-7-9-11-12-9-8-6-3-104631-2-3-12332124447996443221-1-1-4-11-86151211125-5-9-10-14-12-9-11-10-8-31-63-2311523321510830111184-3-9-12-17-23-24-22-15-46101083-4-10-17-21-23-23-20-17-13-8-6-5042-10-1-4-5-5-7-7-7-9-10-9-8-7-6-5-4-3-4-5-3-1-2-2-3-4-5-6-7-8-8-7-6-5-5-4-5-8-8-7-8-10-9-7-8-11-12-11-10-12-14-849655-4-11-9-8-11-12-11-15-13-11-45-7251672531897923141382-3-6-8-10-11-12-7411162322161613-1-10-351325364452555047474646444244474440403735383935292219222215111515106651-3-3-4-7-7-5-5-7-7-7-10-11-10-11-16-21-24-25-27-29-30-27-23-23-29-27-21-24-28-22-20-24-21-19-25-21-22-60-7710153225182822-19-11-13-21-19-20-27-26-24-28-23-15-16-18-14-18-27-25-21-24-27-29-33-33-29-27-26-21-14-9-6-3-1-1-6-7-5-5-5-2-1-4-4-216789107542024432577532368771117191310137-5-7-4-5-13025-21-4419161256226122391196230-8-11-10-10-6-1357111171-6-18-33-36-30-26-23-16-12-11-610020-3-4-2-2-3-6-10-10-9-9-5022357743578995235300122331-1000918149119-2-5-1-2-5-5-7-42-17-54-3194222233140532420171410-1-7-7-9-11-71712181914875-4-13-13-10-8-6061013151617141088767730-20234343214753552110-2-3-122-1-2-2-3-112100-1-3-33107465-4-7-5-6-6-3-8-11-9-35-81-5493241248139431412622-3-9-11-10-13-14-8-2511124-7-9-9-10-13-17-20-18-9-1612141312979981115161821191722313742485154555248495150494742414239332822141161-1-2-4-6-6-355-7-15-11-16-29-32-27-28-29-26-27-25-25-49-73-25101203189929-16-14-17-22-26-29-32-34-33-29-26-22-16-13-16-15-17-28-34-28-27-35-39-37-37-35-29-25-17-8-5-5-3-4-5-4-5-7-5-2-5-7-7-2597810613532454445521151624221921165240-2-2-7-8-2-15-47-29862162411586627211712118-1-9-11-11-9-36111215171570-7-17-29-35-35-34-29-22-17-12-281185310-1-2-4-8-13-16-15-13-11-9-8-6-6-6-8-11-13-11-7-5-4-2-4-7-8-10-12-12-11-11-11-13-15-15-14-919600-3-14-20-18-17-18-16-13-11-7-22-62-546521123814553211713104-4-10-12-17-20-19-15-551419191371-9-18-20-18-17-15-11-4378520-2-5-6-3022-2-9-12-11-8-7-8-9-638620011-1-3-6-7-416101215161158128613133-6-6-6-6-3-3-40-6-45-62342042822048531211410115-6-12-13-14-19-21-14-5021-4-6-8-17-26-30-34-35-31-26-20-12-8-6-2-5-15-17-18-27-30-17-9-12-15-16-16-11-3-4-12-14-10-5-6-9-10-9-10-11